Time (s),Angle (deg),Force (N),Tip Force (N),Position (m),Target (m),Error,P,I,D,Control,RPM
0.0166,273.955,7.63,1.88,0.0,8e-05,-1.84986,-424.54287,-0.35716,-0.30452,-425.20455,-27.466
0.0214,273.164,7.63,1.85,0.0,0.00014,-1.87978,-431.40951,-0.53583,-0.23262,-432.17796,-61.035
0.0262,271.406,7.63,1.88,0.0,0.00022,-1.84968,-424.50156,-0.70702,-0.48463,-425.69321,-118.434
0.0309,268.066,7.63,1.85,0.0,0.00032,-1.84957,-424.47632,-0.88104,-0.67422,-426.03158,-198.364
0.0357,262.354,7.25,1.85,0.0,0.00043,-1.87943,-431.32918,-1.05706,-0.51623,-432.90247,-585.938
0.0405,245.479,6.1,1.88,0.0,0.00057,-1.87928,-431.29476,-1.23219,-0.39805,-54.94601,-854.492
0.0453,220.869,6.1,1.88,0.0,0.00072,-1.84911,-424.37074,-1.40354,-0.61327,-41.28368,-784.302
0.0501,198.281,7.06,1.85,0.0,0.00089,-1.84892,-424.32714,-1.57402,-0.77823,-37.55957,-598.145
0.0549,181.055,7.25,1.85,0.0,0.00108,-1.87871,-431.16394,-1.74651,-0.6023,-37.50697,-473.022
0.0597,167.432,7.06,1.88,0.0,0.00129,-1.84849,-424.22846,-1.91523,-0.77427,-38.30297,-360.108
0.0645,157.061,7.25,1.85,0.0,0.00151,-1.84824,-424.17108,-2.08309,-0.90707,-40.78666,-292.969
0.0693,148.623,7.63,1.85,0.0,0.00176,-1.87798,-430.99641,-2.25296,-0.70728,-44.11145,-274.658
0.0741,140.713,6.67,1.88,0.0,0.00202,-1.8477,-424.04715,-2.41907,-0.86177,-46.83382,-234.985
0.0789,133.945,6.87,1.85,0.0,0.0023,-1.8474,-423.9783,-2.58802,-0.97692,-52.69033,-152.463
0.0838,129.463,7.44,1.85,0.0,0.0026,-1.87708,-430.78986,-2.75528,-0.76928,-60.77015,-119.018
0.0886,126.035,7.25,1.88,0.0,0.00292,-1.87674,-430.71183,-2.92167,-0.61541,-67.71335,-128.174
0.0934,122.344,7.25,1.88,0.0,0.00326,-1.87639,-430.63151,-3.0872,-0.50238,-74.99045,-122.07
0.0982,118.828,7.06,1.88,0.0,0.00361,-1.84601,-423.6593,-3.24898,-0.72362,-427.6319,-140.381
0.103,114.785,7.25,1.85,0.0,0.00399,-1.84562,-423.56979,-3.4136,-0.89067,-427.87406,-173.39
0.1079,109.688,7.44,1.85,0.0,0.00438,-1.84521,-423.4757,-3.57367,-1.02586,-428.07523,-201.416
0.1127,103.887,7.06,1.85,0.0,0.00479,-1.84479,-423.37931,-3.73291,-1.13252,-428.24473,-177.002
0.1175,98.789,7.44,1.85,0.0,0.00521,-1.87434,-430.16103,-3.89418,-0.91484,-434.97005,-140.381
0.1223,94.746,7.06,1.88,0.0,0.00566,-1.84388,-423.17046,-4.05172,-1.05761,-428.27979,-146.484
0.1271,90.527,7.25,1.85,0.0,0.00612,-1.8434,-423.0603,-4.20474,-1.17655,-428.44159,-180.768
0.1318,85.43,7.25,1.85,0.0,0.0066,-1.8429,-422.94555,-4.36064,-1.26577,-428.57196,-207.519
0.1366,79.453,7.44,1.85,0.0,0.0071,-1.87239,-429.7135,-4.51858,-1.03548,-435.26757,-244.141
0.1414,72.422,7.06,1.88,0.0,0.00761,-1.84186,-422.70687,-4.67281,-1.16941,-428.54908,-268.555
0.1462,64.688,7.25,1.85,0.0,0.00814,-1.8413,-422.57835,-4.82621,-1.27652,-76.7774,-228.882
0.151,58.096,7.44,1.85,0.0,0.0087,-1.87074,-429.33483,-4.97793,-1.06568,-76.99816,-227.518
0.1557,51.68,7.06,1.88,0.0,0.00926,-1.84015,-422.31443,-5.12969,-1.20955,-75.55533,-219.727
0.1605,45.352,7.06,1.85,0.0,0.00985,-1.83955,-422.17672,-5.28064,-1.32461,-73.77043,-244.141
0.1653,38.32,7.25,1.85,0.0,0.01045,-1.86892,-428.91714,-5.43365,-1.11511,-73.31137,-247.192
0.1701,31.201,7.25,1.88,0.0,0.01108,-1.83828,-421.88526,-5.58296,-1.26589,-73.58552,-204.468
0.1749,25.312,7.25,1.85,0.0,0.01172,-1.83762,-421.73379,-5.73146,-1.38679,-76.01152,-186.157
0.1797,19.951,7.44,1.85,0.0,0.01238,-1.86694,-428.46273,-5.88203,-1.18221,-78.40163,-198.364
0.1845,14.238,7.44,1.88,0.0,0.01306,-1.83624,-421.41708,-6.02522,-1.34412,-76.99055,-215.051
0.1892,8.174,7.06,1.85,0.0,0.01376,-1.86553,-428.13913,-6.17419,-1.16413,-76.01968,-244.141
0.194,1.143,7.44,1.88,0.0,0.01447,-1.83481,-421.0889,-6.31946,-1.33808,-72.06297,-262.451
0.1988,353.584,7.25,1.85,0.0,0.01519,-1.83405,-420.91448,-6.46393,-1.47753,-71.98184,-228.882
0.2036,346.992,7.44,1.85,0.0,0.01595,-1.83327,-420.73547,-6.6076,-1.59106,-72.28973,-222.778
0.2084,340.576,7.06,1.85,0.0,0.01673,-1.86248,-427.43916,-6.75709,-1.37507,-73.56377,-224.211
0.2133,333.984,7.44,1.88,0.0,0.01752,-1.83166,-420.36597,-6.89914,-1.5297,-69.88419,-268.555
0.2181,326.25,7.06,1.85,0.0,0.01834,-1.83084,-420.17778,-7.04041,-1.65513,-66.67064,-292.969
0.2229,317.812,7.44,1.85,0.0,0.01916,-1.85999,-426.8677,-7.18376,-1.4557,-66.97973,-259.4
0.2277,310.342,7.06,1.88,0.0,0.02001,-1.85912,-426.66804,-7.32632,-1.31341,-67.49206,-238.037
0.2325,303.486,7.63,1.88,0.0,0.02088,-1.85824,-426.46608,-7.4718,-1.2084,-68.35002,-230.189
0.2374,296.719,7.25,1.88,0.0,0.02176,-1.82733,-419.37224,-7.60986,-1.44717,-67.40714,-241.089
0.2422,289.775,7.25,1.85,0.0,0.02267,-1.85641,-426.04609,-7.75374,-1.32762,-67.67548,-257.095
0.2471,282.217,7.25,1.88,0.0,0.02359,-1.82546,-418.94307,-7.89022,-1.55638,-67.84746,-222.778
0.2519,275.801,7.44,1.85,0.0,0.02454,-1.85451,-425.61004,-8.0288,-1.43624,-71.72183,-192.261
0.2567,270.264,7.44,1.88,0.0,0.02549,-1.82353,-418.50014,-8.16736,-1.64983,-72.54327,-200.295
0.2616,264.375,7.25,1.85,0.0,0.02647,-1.88254,-432.04293,-8.30725,-1.22391,-74.76913,-225.83
0.2664,257.871,7.44,1.91,0.0,0.02746,-1.85152,-424.92384,-8.44346,-1.21458,-71.3291,-262.451
0.2712,250.312,7.44,1.88,0.0,0.02848,-1.85049,-424.68745,-8.58259,-1.21179,-69.52816,-263.074
0.2761,242.578,7.44,1.88,0.0,0.02951,-1.84943,-424.44419,-8.71722,-1.22651,-69.89631,-231.934
0.2809,235.898,7.25,1.88,0.0,0.03057,-1.84837,-424.20091,-8.85108,-1.24837,-70.90311,-219.726
0.2857,229.57,7.25,1.88,0.0,0.03163,-1.81728,-417.06576,-8.98128,-1.57896,-70.64574,-219.727
0.2905,223.242,7.44,1.85,0.0,0.03272,-1.84618,-423.69831,-9.1173,-1.52977,-72.00164,-227.2
0.2954,216.562,7.44,1.88,0.0,0.03382,-1.84505,-423.43897,-9.24884,-1.51165,-71.51998,-238.037
0.3002,209.707,7.44,1.88,0.0,0.03495,-1.81391,-416.29235,-9.37673,-1.81246,-73.0148,-189.209
0.305,204.258,7.44,1.85,0.0,0.03609,-1.81276,-416.02842,-9.50387,-2.05196,-76.52501,-170.899
0.3098,199.336,7.25,1.85,0.0,0.03724,-1.84158,-422.64261,-9.63314,-1.9423,-434.21805,-177.002
0.3146,194.238,7.25,1.88,0.0,0.03842,-1.84038,-422.36721,-9.76533,-1.86193,-433.99448,-200.295
0.3195,188.35,7.25,1.88,0.0,0.03962,-1.83916,-422.08722,-9.89307,-1.82278,-77.89574,-244.141
0.3243,181.318,7.44,1.88,0.0,0.04084,-1.80793,-414.91994,-10.01716,-2.10857,-72.97512,-268.555
0.3291,173.584,7.44,1.85,0.0,0.04207,-1.80667,-414.63076,-10.14413,-2.32606,-72.36963,-233.179
0.334,166.729,7.44,1.85,0.0,0.04333,-1.8054,-414.3393,-10.26673,-2.5154,-71.97102,-231.934
0.3388,160.049,7.25,1.85,0.0,0.0446,-1.77412,-407.16054,-10.38571,-2.9748,-70.36028,-234.985
0.3436,153.281,7.25,1.82,0.0,0.04588,-1.83281,-420.62989,-10.5134,-2.71628,-70.8334,-257.095
0.3485,145.723,7.44,1.88,0.0,0.04719,-1.80148,-413.43966,-10.63377,-2.85061,-66.77842,-286.865
0.3533,137.461,7.44,1.85,0.0,0.04852,-1.80014,-413.13213,-10.75342,-2.96592,-66.44876,-250.244
0.3581,130.254,7.44,1.85,0.0,0.04986,-1.79878,-412.82001,-10.87233,-3.06701,-67.80597,-219.726
0.3629,123.926,7.44,1.85,0.0,0.05122,-1.82739,-419.386,-10.99705,-2.84026,-70.28069,-215.242
0.3678,117.598,7.44,1.88,0.0,0.05261,-1.79599,-412.17971,-11.11448,-2.99999,-69.18328,-234.985
0.3726,110.83,7.63,1.85,0.0,0.05401,-1.82458,-418.74111,-11.23407,-2.83222,-68.8789,-259.399
0.3774,103.359,7.44,1.88,0.0,0.05542,-1.79315,-411.52792,-11.35363,-3.0074,-68.83862,-221.221
0.3823,96.855,7.44,1.85,0.0,0.05685,-1.79171,-411.19745,-11.46528,-3.18594,-71.12083,-196.351
0.387,91.318,7.25,1.85,0.0,0.05829,-1.79025,-410.86238,-11.57982,-3.31985,-71.83818,-216.675
0.3918,85.078,7.44,1.85,0.0,0.05975,-1.81877,-417.40771,-11.69652,-3.13322,-72.77526,-228.882
0.3966,78.486,7.63,1.88,0.0,0.06123,-1.78727,-410.17847,-11.80962,-3.31002,-69.32188,-265.503
0.4014,70.84,7.44,1.85,0.0,0.06273,-1.81576,-416.71692,-11.92488,-3.15617,-68.61555,-265.503
0.4062,63.193,7.63,1.88,0.0,0.06424,-1.78423,-409.48078,-12.03655,-3.35811,-68.14615,-228.882
0.411,56.602,7.63,1.85,0.0,0.06577,-1.78268,-409.12506,-12.1475,-3.52675,-69.34426,-216.675
0.4158,50.361,7.63,1.85,0.0,0.06732,-1.78111,-408.76475,-12.25775,-3.67037,-69.79821,-225.83
0.4206,43.857,7.44,1.85,0.0,0.06889,-1.77953,-408.40213,-12.36729,-3.79513,-69.27664,-241.089
0.4254,36.914,7.44,1.85,0.0,0.07047,-1.80793,-414.91993,-12.4754,-3.62106,-69.64298,-246.218
0.4301,29.971,7.63,1.88,0.0,0.07207,-1.80631,-414.54814,-12.58643,-3.48727,-72.75379,-183.105
0.4349,24.697,7.25,1.88,0.0,0.07369,-1.80467,-414.17176,-12.69675,-3.40248,-75.88306,-177.002
0.4397,19.6,7.44,1.88,0.0,0.07533,-1.77302,-406.90809,-12.80347,-3.65794,-76.53836,-189.209
0.4445,14.15,7.63,1.85,0.0,0.07698,-1.77135,-406.52483,-12.90951,-3.86834,-76.57646,-210.571
0.4493,8.086,7.63,1.85,0.0,0.07865,-1.79967,-413.02426,-13.01413,-3.76066,-75.36962,-246.218
0.454,1.143,7.44,1.88,0.0,0.08033,-1.79797,-412.63411,-13.12166,-3.67727,-72.43299,-262.451
0.4588,353.584,7.44,1.88,0.0,0.08203,-1.76623,-405.34979,-13.22561,-3.9347,-70.93341,-231.934
0.4636,346.904,7.63,1.85,0.0,0.08377,-1.79447,-411.83087,-13.33175,-3.84447,-72.5048,-219.726
0.4684,340.576,7.44,1.88,0.0,0.08553,-1.79269,-411.42235,-13.44078,-3.77503,-72.17981,-230.19
0.4733,333.809,7.44,1.88,0.0,0.08731,-1.76089,-404.12426,-13.54262,-4.0627,-68.5752,-268.555
0.4781,326.074,7.44,1.85,0.0,0.08911,-1.78907,-410.59157,-13.64666,-3.99598,-66.61372,-289.917
0.4829,317.725,7.44,1.88,0.0,0.09093,-1.78724,-410.17158,-13.75,-3.96393,-66.31439,-250.244
0.4877,310.518,7.44,1.88,0.0,0.09276,-1.78539,-409.747,-13.85622,-3.93844,-67.13338,-230.189
0.4926,303.75,7.25,1.88,0.0,0.09461,-1.75353,-402.43514,-13.95528,-4.26084,-66.48919,-234.985
0.4974,296.982,7.25,1.85,0.0,0.09647,-1.75164,-402.00138,-14.05366,-4.52417,-66.50816,-241.089
0.5022,290.039,7.63,1.85,0.0,0.09836,-1.77973,-408.44803,-14.15424,-4.43993,-66.73878,-256.348
0.507,282.656,7.44,1.88,0.0,0.10027,-1.77781,-408.00739,-14.2577,-4.37341,-68.11143,-218.232
0.5119,276.24,7.63,1.88,1e-05,0.10219,-1.77586,-407.55987,-14.35689,-4.36481,-70.92617,-189.209
0.5167,270.791,7.63,1.88,1e-05,0.10414,-1.7739,-407.11005,-14.4554,-4.37809,-72.78503,-198.364
0.5215,265.078,7.63,1.88,1e-05,0.1061,-1.77191,-406.65334,-14.55677,-4.38609,-73.06665,-218.232
0.5264,258.662,7.63,1.88,1e-05,0.10809,-1.73991,-399.30935,-14.65102,-4.73755,-69.28967,-265.503
0.5312,251.016,7.63,1.85,1e-05,0.11009,-1.76789,-405.73075,-14.75102,-4.69745,-68.3094,-266.064
0.5361,243.193,7.82,1.88,1e-05,0.11211,-1.73585,-398.37758,-14.8439,-5.01443,-67.6826,-228.882
0.5409,236.602,7.44,1.85,1e-05,0.11415,-1.7338,-397.9071,-14.93613,-5.27528,-68.40719,-222.778
0.5457,230.186,7.63,1.85,1e-05,0.1162,-1.73173,-397.43203,-15.03116,-5.46619,-69.62127,-212.253
0.5506,223.945,7.44,1.85,1e-05,0.11827,-1.75964,-403.83738,-15.12493,-5.35651,-70.71024,-228.882
0.5554,217.354,7.82,1.88,1e-05,0.12036,-1.75752,-403.35084,-15.21802,-5.29483,-70.11205,-238.037
0.5602,210.498,7.82,1.88,1e-05,0.12248,-1.7254,-395.9793,-15.31102,-5.54454,-71.16952,-194.316
0.5651,204.785,7.82,1.85,1e-05,0.1246,-1.75325,-402.37088,-15.40278,-5.48041,-76.1473,-164.795
0.5699,200.039,7.63,1.88,1e-05,0.12675,-1.75109,-401.87515,-15.49387,-5.45365,-422.82267,-183.106
0.5747,194.766,7.44,1.88,1e-05,0.12891,-1.7489,-401.37255,-15.58779,-5.42807,-422.38842,-197.305
0.5796,188.965,7.63,1.88,1e-05,0.1311,-1.7167,-393.98265,-15.67466,-5.76137,-74.90496,-241.089
0.5844,182.021,7.63,1.85,1e-05,0.1333,-1.74447,-400.35586,-15.76724,-5.70455,-72.605,-263.074
0.5893,174.287,7.63,1.88,1e-05,0.13553,-1.74224,-399.84408,-15.85566,-5.71284,-71.52825,-238.037
0.5941,167.432,7.82,1.88,1e-05,0.13776,-1.70998,-392.44041,-15.94396,-6.0146,-70.38888,-224.211
0.599,160.84,7.63,1.85,1e-05,0.14002,-1.70771,-391.91944,-16.02818,-6.29652,-70.30493,-225.83
0.6038,154.336,7.63,1.85,1e-05,0.14229,-1.73542,-398.27889,-16.11464,-6.23019,-70.05441,-247.192
0.6086,147.217,8.01,1.88,1e-05,0.14458,-1.73311,-397.74874,-16.20045,-6.20328,-66.90071,-283.814
0.6134,139.043,7.63,1.88,1e-05,0.14689,-1.70079,-390.3313,-16.28612,-6.47664,-65.01847,-254.105
0.6183,131.572,7.63,1.85,1e-05,0.14921,-1.72844,-396.67698,-16.37062,-6.43715,-67.42296,-216.675
0.6231,125.332,7.63,1.88,1e-05,0.15156,-1.69607,-389.24807,-16.45498,-6.70037,-67.19902,-221.221
0.628,118.828,8.01,1.85,1e-05,0.15393,-1.69369,-388.70186,-16.5353,-6.95765,-67.47344,-228.882
0.6328,112.236,7.82,1.85,1e-05,0.15631,-1.69129,-388.15106,-16.61499,-7.17681,-66.16979,-256.348
0.6376,104.854,7.82,1.85,1e-05,0.15871,-1.68887,-387.59566,-16.69742,-7.33026,-66.37217,-233.179
0.6425,97.998,7.82,1.85,1e-05,0.16113,-1.68645,-387.04028,-16.77584,-7.50797,-69.01241,-189.209
0.6473,92.549,7.82,1.85,1e-05,0.16355,-1.71402,-393.36759,-16.8565,-7.36412,-71.66237,-201.416
0.6521,86.748,7.63,1.88,1e-05,0.16598,-1.71156,-392.80302,-16.93653,-7.27999,-71.93424,-216.675
0.6569,80.508,7.82,1.88,1e-05,0.16844,-1.7091,-392.23845,-17.01592,-7.2411,-70.26217,-247.193
0.6617,73.389,7.63,1.88,1e-05,0.1709,-1.70662,-391.66929,-17.09468,-7.23669,-67.7391,-268.555
0.6665,65.654,8.01,1.88,1e-05,0.17338,-1.73411,-397.97824,-17.17568,-6.95568,-68.7107,-234.985
0.6713,58.887,7.63,1.91,1e-05,0.17589,-1.70158,-390.51261,-17.25315,-7.07137,-68.54348,-216.675
0.6761,52.646,8.01,1.88,1e-05,0.17842,-1.69904,-389.92968,-17.32999,-7.18468,-69.86228,-207.519
0.6809,46.67,8.01,1.88,1e-05,0.18096,-1.66649,-382.45945,-17.39999,-7.63787,-68.10383,-236.868
0.6856,39.99,7.44,1.85,1e-05,0.18351,-1.66391,-381.86735,-17.47273,-7.96869,-67.01445,-247.192
0.6904,32.871,7.82,1.85,1e-05,0.18609,-1.69133,-388.16023,-17.54773,-7.94234,-69.12608,-213.623
0.6952,26.719,7.82,1.88,1e-05,0.18867,-1.68871,-387.55894,-17.62211,-7.94885,-72.19157,-177.002
0.7,21.621,7.82,1.88,1e-05,0.19129,-1.68609,-386.95765,-17.69586,-7.98024,-74.65217,-180.053
0.7048,16.436,8.01,1.88,1e-05,0.19391,-1.65345,-379.46678,-17.76612,-8.33371,-405.56661,-201.416
0.7096,10.635,8.01,1.85,1e-05,0.19655,-1.65078,-378.85401,-17.83576,-8.62847,-73.27765,-219.727
0.7144,4.307,8.2,1.85,1e-05,0.19922,-1.64813,-378.24583,-17.90151,-8.92361,-70.23424,-258.685
0.7191,357.012,8.01,1.85,1e-05,0.20187,-1.6454,-377.6193,-17.97325,-9.08382,-69.00341,-239.158
0.724,349.98,7.82,1.85,1e-05,0.2046,-1.64267,-376.99277,-18.04108,-9.27865,-69.75131,-210.571
0.7288,343.916,8.01,1.85,1e-05,0.20733,-1.63991,-376.35935,-18.1083,-9.45413,-69.60063,-222.778
0.7336,337.5,8.2,1.85,1e-05,0.21009,-1.63716,-375.72822,-18.17493,-9.61485,-68.55168,-238.037
0.7384,330.645,7.82,1.85,1e-05,0.21284,-1.63437,-375.08792,-18.24422,-9.71571,-65.42655,-278.021
0.7433,322.471,7.82,1.85,1e-05,0.21563,-1.63155,-374.44072,-18.30963,-9.86968,-63.30793,-274.658
0.7481,314.561,7.82,1.85,1e-05,0.21845,-1.65872,-380.67624,-18.37732,-9.71188,-64.68331,-234.985
0.7529,307.793,8.01,1.88,1e-05,0.22128,-1.62587,-373.13717,-18.44477,-9.87428,-64.42886,-224.211
0.7578,301.201,8.01,1.85,1e-05,0.22413,-1.623,-372.4785,-18.50835,-10.07617,-65.17284,-222.778
0.7626,294.785,8.01,1.85,1e-05,0.227,-1.65012,-378.70254,-18.57752,-9.90516,-65.77736,-242.148
0.7675,287.666,8.39,1.88,1e-05,0.22988,-1.64722,-378.03699,-18.64277,-9.85492,-65.10006,-247.192
0.7723,280.547,8.01,1.88,1e-05,0.23278,-1.6443,-377.36685,-18.70741,-9.84635,-66.84949,-204.468
0.7771,274.658,8.01,1.88,1e-05,0.2357,-1.64136,-376.69212,-18.77472,-9.81996,-69.86113,-179.369
0.782,269.385,8.2,1.88,1e-05,0.23864,-1.63841,-376.01509,-18.83814,-9.87937,-71.21045,-198.364
0.7868,263.672,8.01,1.88,1e-05,0.24159,-1.63544,-375.33348,-18.90095,-9.95437,-70.37543,-228.882
0.7916,257.08,8.2,1.88,1e-05,0.24456,-1.63246,-374.64957,-18.96316,-10.04129,-67.35987,-268.555
0.7964,249.346,8.2,1.88,1e-05,0.24754,-1.62945,-373.95877,-19.02803,-10.0866,-65.67092,-257.095
0.8013,241.787,8.2,1.88,1e-05,0.25055,-1.62644,-373.26798,-19.08903,-10.20227,-66.90586,-210.571
0.8061,235.723,8.01,1.88,1e-05,0.25356,-1.5934,-365.6853,-19.14655,-10.62364,-66.6344,-213.623
0.8109,229.57,8.01,1.85,1e-05,0.2566,-1.59034,-364.98303,-19.20349,-10.97377,-67.33583,-213.623
0.8157,223.418,8.2,1.85,1e-05,0.25966,-1.61727,-371.16346,-19.26596,-10.91189,-68.74689,-218.232
0.8206,217.002,8.39,1.88,1e-05,0.26273,-1.61418,-370.45431,-19.3246,-10.95133,-68.29317,-228.882
0.8254,210.41,8.01,1.88,1e-05,0.26582,-1.58107,-362.85557,-19.37976,-11.31565,-69.34371,-186.157
0.8302,205.049,8.2,1.85,1e-05,0.26893,-1.60794,-369.02223,-19.44044,-11.26336,-399.72602,-146.484
0.8351,200.742,8.01,1.88,1e-05,0.27206,-1.60479,-368.29931,-19.49408,-11.36986,-399.16325,-168.301
0.8398,195.996,8.01,1.88,1e-05,0.27521,-1.60166,-367.58097,-19.55358,-11.36734,-398.50188,-227.2
0.8447,189.316,8.39,1.88,1e-05,0.27834,-1.62847,-373.73386,-19.61214,-11.15202,-56.69575,-564.575
0.8495,173.057,8.2,1.91,1e-05,0.28153,-1.62528,-373.00176,-19.67011,-11.02113,-47.8065,-531.006
0.8543,157.764,9.15,1.91,1e-05,0.28472,-1.56205,-358.49048,-19.72484,-11.50256,-43.15246,-436.464
0.8592,144.932,8.77,1.85,1e-05,0.28795,-1.55881,-357.74689,-19.77586,-11.9581,-41.70092,-405.884
0.864,133.242,8.77,1.85,1e-05,0.29119,-1.58555,-363.88373,-19.82919,-12.03311,-43.44358,-311.279
0.8688,124.277,9.15,1.88,1e-05,0.29445,-1.55228,-356.24826,-19.88217,-12.36355,-45.28048,-245.137
0.8737,117.07,8.77,1.85,1e-05,0.29772,-1.579,-362.3805,-19.93434,-12.40642,-48.76498,-231.934
0.8785,110.391,8.96,1.88,1e-05,0.301,-1.5457,-354.73815,-19.98306,-12.77527,-50.50782,-225.83
0.8833,103.887,8.77,1.85,1e-05,0.3043,-1.57237,-360.85891,-20.03409,-12.78531,-55.45193,-180.054
0.8881,98.701,9.15,1.88,1e-05,0.30763,-1.56905,-360.09697,-20.08455,-12.82644,-61.79985,-125.122
0.8929,95.098,9.15,1.88,1e-05,0.31095,-1.56572,-359.33274,-20.13444,-12.89125,-68.27111,-122.07
0.8977,91.582,8.96,1.88,1e-05,0.31428,-1.53238,-351.68121,-20.18087,-13.27711,-385.13919,-140.381
0.9025,87.539,8.77,1.85,1e-05,0.31762,-1.55901,-357.79279,-20.22963,-13.30043,-391.32286,-167.847
0.9073,82.705,8.96,1.88,1e-05,0.32099,-1.52564,-350.13438,-20.27495,-13.65518,-384.0645,-183.106
0.9121,77.432,8.77,1.85,1e-05,0.32436,-1.55222,-356.23449,-20.32258,-13.65544,-390.21251,-228.882
0.9169,70.84,8.96,1.88,1e-05,0.32778,-1.5488,-355.4496,-20.36966,-13.69018,-389.50944,-231.934
0.9217,64.16,8.96,1.88,1e-05,0.3312,-1.54537,-354.66241,-20.41616,-13.75115,-388.82972,-195.312
0.9265,58.535,8.96,1.88,1e-05,0.33463,-1.5419,-353.86605,-20.4621,-13.83238,-388.16054,-180.054
0.9313,53.35,9.15,1.88,1e-05,0.3381,-1.50841,-346.18009,-20.5046,-14.23221,-380.91691,-192.261
0.9361,47.812,8.96,1.85,1e-05,0.34159,-1.53492,-352.26414,-20.54943,-14.26733,-387.0809,-213.623
0.9409,41.66,8.96,1.88,2e-05,0.34508,-1.53141,-351.4586,-20.5937,-14.32939,-386.38169,-234.985
0.9457,34.893,8.77,1.88,2e-05,0.34859,-1.52789,-350.65076,-20.63435,-14.48512,-69.81477,-224.402
0.9504,28.564,8.96,1.88,2e-05,0.35211,-1.49435,-342.95333,-20.67464,-14.86873,-378.49669,-173.95
0.9552,23.555,8.96,1.85,2e-05,0.35565,-1.52078,-349.01901,-20.71726,-14.89237,-384.62864,-170.899
0.96,18.633,8.77,1.88,2e-05,0.35922,-1.48725,-341.32387,-20.75645,-15.24897,-377.32929,-244.141
0.9648,11.602,8.96,1.85,2e-05,0.36275,-1.51366,-347.38497,-20.79798,-15.25235,-52.76055,-573.731
0.9696,355.078,8.58,1.88,2e-05,0.36634,-1.51002,-346.54959,-20.83895,-15.29168,-44.34905,-546.265
0.9744,339.346,9.34,1.88,2e-05,0.36998,-1.50636,-345.70962,-20.87937,-15.35844,-41.16585,-457.764
0.9792,326.162,9.15,1.88,2e-05,0.37364,-1.50269,-344.86735,-20.92223,-15.36847,-40.1185,-397.6
0.9841,314.473,9.34,1.88,2e-05,0.37731,-1.49897,-344.01361,-20.96152,-15.49127,-41.04213,-317.383
0.9889,305.332,9.54,1.88,2e-05,0.38103,-1.49525,-343.15987,-21.00325,-15.54337,-43.67749,-242.148
0.9938,298.213,9.34,1.88,2e-05,0.38475,-1.46151,-335.41655,-21.03854,-16.00215,-46.02064,-213.623
0.9986,292.061,9.34,1.85,2e-05,0.38849,-1.45776,-334.55592,-21.07329,-16.38759,-48.69204,-219.726
1.0034,285.732,9.15,1.85,2e-05,0.39224,-1.48399,-340.5757,-21.11336,-16.33215,-53.30554,-185.348
1.0083,280.283,9.54,1.88,2e-05,0.39601,-1.45021,-332.8232,-21.14701,-16.71385,-58.06492,-131.226
1.0131,276.504,9.15,1.85,2e-05,0.39979,-1.4764,-338.8338,-21.18301,-16.73847,-67.31624,-88.501
1.0179,273.955,9.34,1.88,2e-05,0.4036,-1.4726,-337.9617,-21.22141,-16.71111,-375.89422,-89.684
1.0228,271.318,9.34,1.88,2e-05,0.4074,-1.43876,-330.19542,-21.25342,-17.1166,-368.56544,-119.018
